 #energy          xx(cm^-1)       yy(cm^-1)       zz(cm^-1)       xy(cm^-1)       yz(cm^-1)       zx(cm^-1)
  0.00000000E+00  0.00000000E+00  0.00000000E+00  0.00000000E+00  0.00000000E+00  0.00000000E+00  0.00000000E+00
  0.53800000E-01  0.13988086E+05  0.13988086E+05  0.13988086E+05  0.00000000E+00  0.00000000E+00  0.00000000E+00
  0.10770000E+00  0.45538315E+05  0.45538315E+05  0.45538315E+05  0.00000000E+00  0.00000000E+00  0.00000000E+00
  0.16150000E+00  0.79852142E+05  0.79852142E+05  0.79852142E+05  0.00000000E+00  0.00000000E+00  0.00000000E+00
  0.21540000E+00  0.10615490E+06  0.10615490E+06  0.10615490E+06  0.00000000E+00  0.00000000E+00  0.00000000E+00
  0.26920000E+00  0.11795309E+06  0.11795309E+06  0.11795309E+06  0.00000000E+00  0.00000000E+00  0.00000000E+00
  0.32300000E+00  0.12075734E+06  0.12075734E+06  0.12075734E+06  0.00000000E+00  0.00000000E+00  0.00000000E+00
  0.37690000E+00  0.12084107E+06  0.12084107E+06  0.12084107E+06  0.00000000E+00  0.00000000E+00  0.00000000E+00
  0.43070000E+00  0.11713357E+06  0.11713357E+06  0.11713357E+06  0.00000000E+00  0.00000000E+00  0.00000000E+00
  0.48460000E+00  0.11432555E+06  0.11432555E+06  0.11432555E+06  0.00000000E+00  0.00000000E+00  0.00000000E+00
  0.53840000E+00  0.12128128E+06  0.12128128E+06  0.12128128E+06  0.00000000E+00  0.00000000E+00  0.00000000E+00
  0.59220000E+00  0.14207725E+06  0.14207725E+06  0.14207725E+06  0.00000000E+00  0.00000000E+00  0.00000000E+00
  0.64610000E+00  0.17183744E+06  0.17183744E+06  0.17183744E+06  0.00000000E+00  0.00000000E+00  0.00000000E+00
  0.69990000E+00  0.19439346E+06  0.19439346E+06  0.19439346E+06  0.00000000E+00  0.00000000E+00  0.00000000E+00
  0.75370000E+00  0.20423892E+06  0.20423892E+06  0.20423892E+06  0.00000000E+00  0.00000000E+00  0.00000000E+00
  0.80760000E+00  0.21019828E+06  0.21019828E+06  0.21019828E+06  0.00000000E+00  0.00000000E+00  0.00000000E+00
  0.86140000E+00  0.21455786E+06  0.21455786E+06  0.21455786E+06  0.00000000E+00  0.00000000E+00  0.00000000E+00
  0.91530000E+00  0.22823032E+06  0.22823032E+06  0.22823032E+06  0.00000000E+00  0.00000000E+00  0.00000000E+00
  0.96910000E+00  0.26287657E+06  0.26287657E+06  0.26287657E+06  0.00000000E+00  0.00000000E+00  0.00000000E+00
  0.10229000E+01  0.31335657E+06  0.31335657E+06  0.31335657E+06  0.00000000E+00  0.00000000E+00  0.00000000E+00
  0.10768000E+01  0.37659054E+06  0.37659054E+06  0.37659054E+06  0.00000000E+00  0.00000000E+00  0.00000000E+00
  0.11306000E+01  0.45062538E+06  0.45062538E+06  0.45062538E+06  0.00000000E+00  0.00000000E+00  0.00000000E+00
  0.11845000E+01  0.52059119E+06  0.52059119E+06  0.52059119E+06  0.00000000E+00  0.00000000E+00  0.00000000E+00
  0.12383000E+01  0.56999605E+06  0.56999605E+06  0.56999605E+06  0.00000000E+00  0.00000000E+00  0.00000000E+00
  0.12921000E+01  0.58999809E+06  0.58999809E+06  0.58999809E+06  0.00000000E+00  0.00000000E+00  0.00000000E+00
  0.13460000E+01  0.58550607E+06  0.58550607E+06  0.58550607E+06  0.00000000E+00  0.00000000E+00  0.00000000E+00
  0.13998000E+01  0.57104994E+06  0.57104994E+06  0.57104994E+06  0.00000000E+00  0.00000000E+00  0.00000000E+00
  0.14537000E+01  0.55641973E+06  0.55641973E+06  0.55641973E+06  0.00000000E+00  0.00000000E+00  0.00000000E+00
  0.15075000E+01  0.54717775E+06  0.54717775E+06  0.54717775E+06  0.00000000E+00  0.00000000E+00  0.00000000E+00
  0.15613000E+01  0.54212140E+06  0.54212140E+06  0.54212140E+06  0.00000000E+00  0.00000000E+00  0.00000000E+00
  0.16152000E+01  0.53233139E+06  0.53233139E+06  0.53233139E+06  0.00000000E+00  0.00000000E+00  0.00000000E+00
  0.16690000E+01  0.51298666E+06  0.51298666E+06  0.51298666E+06  0.00000000E+00  0.00000000E+00  0.00000000E+00
  0.17228000E+01  0.48652333E+06  0.48652333E+06  0.48652333E+06  0.00000000E+00  0.00000000E+00  0.00000000E+00
  0.17767000E+01  0.45624426E+06  0.45624426E+06  0.45624426E+06  0.00000000E+00  0.00000000E+00  0.00000000E+00
  0.18305000E+01  0.42463928E+06  0.42463928E+06  0.42463928E+06  0.00000000E+00  0.00000000E+00  0.00000000E+00
  0.18844000E+01  0.39534347E+06  0.39534347E+06  0.39534347E+06  0.00000000E+00  0.00000000E+00  0.00000000E+00
  0.19382000E+01  0.37358944E+06  0.37358944E+06  0.37358944E+06  0.00000000E+00  0.00000000E+00  0.00000000E+00
  0.19920000E+01  0.36883619E+06  0.36883619E+06  0.36883619E+06  0.00000000E+00  0.00000000E+00  0.00000000E+00
  0.20459000E+01  0.38083885E+06  0.38083885E+06  0.38083885E+06  0.00000000E+00  0.00000000E+00  0.00000000E+00
  0.20997000E+01  0.39198684E+06  0.39198684E+06  0.39198684E+06  0.00000000E+00  0.00000000E+00  0.00000000E+00
  0.21536000E+01  0.39302078E+06  0.39302078E+06  0.39302078E+06  0.00000000E+00  0.00000000E+00  0.00000000E+00
  0.22074000E+01  0.40292163E+06  0.40292163E+06  0.40292163E+06  0.00000000E+00  0.00000000E+00  0.00000000E+00
  0.22612000E+01  0.42835983E+06  0.42835983E+06  0.42835983E+06  0.00000000E+00  0.00000000E+00  0.00000000E+00
  0.23151000E+01  0.45051453E+06  0.45051453E+06  0.45051453E+06  0.00000000E+00  0.00000000E+00  0.00000000E+00
  0.23689000E+01  0.45760909E+06  0.45760909E+06  0.45760909E+06  0.00000000E+00  0.00000000E+00  0.00000000E+00
  0.24228000E+01  0.45346404E+06  0.45346404E+06  0.45346404E+06  0.00000000E+00  0.00000000E+00  0.00000000E+00
  0.24766000E+01  0.44730680E+06  0.44730680E+06  0.44730680E+06  0.00000000E+00  0.00000000E+00  0.00000000E+00
  0.25304000E+01  0.45112610E+06  0.45112610E+06  0.45112610E+06  0.00000000E+00  0.00000000E+00  0.00000000E+00
  0.25843000E+01  0.46587742E+06  0.46587742E+06  0.46587742E+06  0.00000000E+00  0.00000000E+00  0.00000000E+00
  0.26381000E+01  0.47739049E+06  0.47739049E+06  0.47739049E+06  0.00000000E+00  0.00000000E+00  0.00000000E+00
  0.26919000E+01  0.47894202E+06  0.47894202E+06  0.47894202E+06  0.00000000E+00  0.00000000E+00  0.00000000E+00
  0.27458000E+01  0.47942297E+06  0.47942297E+06  0.47942297E+06  0.00000000E+00  0.00000000E+00  0.00000000E+00
  0.27996000E+01  0.48103816E+06  0.48103816E+06  0.48103816E+06  0.00000000E+00  0.00000000E+00  0.00000000E+00
  0.28535000E+01  0.47389947E+06  0.47389947E+06  0.47389947E+06  0.00000000E+00  0.00000000E+00  0.00000000E+00
  0.29073000E+01  0.45381217E+06  0.45381217E+06  0.45381217E+06  0.00000000E+00  0.00000000E+00  0.00000000E+00
  0.29611000E+01  0.43155007E+06  0.43155007E+06  0.43155007E+06  0.00000000E+00  0.00000000E+00  0.00000000E+00
  0.30150000E+01  0.42036946E+06  0.42036946E+06  0.42036946E+06  0.00000000E+00  0.00000000E+00  0.00000000E+00
  0.30688000E+01  0.41932378E+06  0.41932378E+06  0.41932378E+06  0.00000000E+00  0.00000000E+00  0.00000000E+00
  0.31227000E+01  0.42067564E+06  0.42067564E+06  0.42067564E+06  0.00000000E+00  0.00000000E+00  0.00000000E+00
  0.31765000E+01  0.41042612E+06  0.41042612E+06  0.41042612E+06  0.00000000E+00  0.00000000E+00  0.00000000E+00
  0.32303000E+01  0.38339724E+06  0.38339724E+06  0.38339724E+06  0.00000000E+00  0.00000000E+00  0.00000000E+00
  0.32842000E+01  0.36494670E+06  0.36494670E+06  0.36494670E+06  0.00000000E+00  0.00000000E+00  0.00000000E+00
  0.33380000E+01  0.37096170E+06  0.37096170E+06  0.37096170E+06  0.00000000E+00  0.00000000E+00  0.00000000E+00
  0.33919000E+01  0.38818067E+06  0.38818067E+06  0.38818067E+06  0.00000000E+00  0.00000000E+00  0.00000000E+00
  0.34457000E+01  0.39595931E+06  0.39595931E+06  0.39595931E+06  0.00000000E+00  0.00000000E+00  0.00000000E+00
  0.34995000E+01  0.37759947E+06  0.37759947E+06  0.37759947E+06  0.00000000E+00  0.00000000E+00  0.00000000E+00
  0.35534000E+01  0.34853218E+06  0.34853218E+06  0.34853218E+06  0.00000000E+00  0.00000000E+00  0.00000000E+00
  0.36072000E+01  0.33349285E+06  0.33349285E+06  0.33349285E+06  0.00000000E+00  0.00000000E+00  0.00000000E+00
  0.36611000E+01  0.34008166E+06  0.34008166E+06  0.34008166E+06  0.00000000E+00  0.00000000E+00  0.00000000E+00
  0.37149000E+01  0.35370471E+06  0.35370471E+06  0.35370471E+06  0.00000000E+00  0.00000000E+00  0.00000000E+00
  0.37687000E+01  0.35306389E+06  0.35306389E+06  0.35306389E+06  0.00000000E+00  0.00000000E+00  0.00000000E+00
  0.38226000E+01  0.34217724E+06  0.34217724E+06  0.34217724E+06  0.00000000E+00  0.00000000E+00  0.00000000E+00
  0.38764000E+01  0.34248614E+06  0.34248614E+06  0.34248614E+06  0.00000000E+00  0.00000000E+00  0.00000000E+00
  0.39302000E+01  0.35599832E+06  0.35599832E+06  0.35599832E+06  0.00000000E+00  0.00000000E+00  0.00000000E+00
  0.39841000E+01  0.36750515E+06  0.36750515E+06  0.36750515E+06  0.00000000E+00  0.00000000E+00  0.00000000E+00
  0.40379000E+01  0.37970164E+06  0.37970164E+06  0.37970164E+06  0.00000000E+00  0.00000000E+00  0.00000000E+00
  0.40918000E+01  0.39874963E+06  0.39874963E+06  0.39874963E+06  0.00000000E+00  0.00000000E+00  0.00000000E+00
  0.41456000E+01  0.41487550E+06  0.41487550E+06  0.41487550E+06  0.00000000E+00  0.00000000E+00  0.00000000E+00
  0.41994000E+01  0.41967576E+06  0.41967576E+06  0.41967576E+06  0.00000000E+00  0.00000000E+00  0.00000000E+00
  0.42533000E+01  0.42805322E+06  0.42805322E+06  0.42805322E+06  0.00000000E+00  0.00000000E+00  0.00000000E+00
  0.43071000E+01  0.45637610E+06  0.45637610E+06  0.45637610E+06  0.00000000E+00  0.00000000E+00  0.00000000E+00
  0.43610000E+01  0.48714417E+06  0.48714417E+06  0.48714417E+06  0.00000000E+00  0.00000000E+00  0.00000000E+00
  0.44148000E+01  0.49421347E+06  0.49421347E+06  0.49421347E+06  0.00000000E+00  0.00000000E+00  0.00000000E+00
  0.44686000E+01  0.47959623E+06  0.47959623E+06  0.47959623E+06  0.00000000E+00  0.00000000E+00  0.00000000E+00
  0.45225000E+01  0.45674189E+06  0.45674189E+06  0.45674189E+06  0.00000000E+00  0.00000000E+00  0.00000000E+00
  0.45763000E+01  0.43719489E+06  0.43719489E+06  0.43719489E+06  0.00000000E+00  0.00000000E+00  0.00000000E+00
  0.46302000E+01  0.43285699E+06  0.43285699E+06  0.43285699E+06  0.00000000E+00  0.00000000E+00  0.00000000E+00
  0.46840000E+01  0.44204737E+06  0.44204737E+06  0.44204737E+06  0.00000000E+00  0.00000000E+00  0.00000000E+00
  0.47378000E+01  0.46605834E+06  0.46605834E+06  0.46605834E+06  0.00000000E+00  0.00000000E+00  0.00000000E+00
  0.47917000E+01  0.50200623E+06  0.50200623E+06  0.50200623E+06  0.00000000E+00  0.00000000E+00  0.00000000E+00
  0.48455000E+01  0.54231345E+06  0.54231345E+06  0.54231345E+06  0.00000000E+00  0.00000000E+00  0.00000000E+00
  0.48993000E+01  0.59349893E+06  0.59349893E+06  0.59349893E+06  0.00000000E+00  0.00000000E+00  0.00000000E+00
  0.49532000E+01  0.65264056E+06  0.65264056E+06  0.65264056E+06  0.00000000E+00  0.00000000E+00  0.00000000E+00
  0.50070000E+01  0.71925014E+06  0.71925014E+06  0.71925014E+06  0.00000000E+00  0.00000000E+00  0.00000000E+00
  0.50609000E+01  0.79589372E+06  0.79589372E+06  0.79589372E+06  0.00000000E+00  0.00000000E+00  0.00000000E+00
  0.51147000E+01  0.86943658E+06  0.86943658E+06  0.86943658E+06  0.00000000E+00  0.00000000E+00  0.00000000E+00
  0.51685000E+01  0.89656538E+06  0.89656538E+06  0.89656538E+06  0.00000000E+00  0.00000000E+00  0.00000000E+00
  0.52224000E+01  0.85625059E+06  0.85625059E+06  0.85625059E+06  0.00000000E+00  0.00000000E+00  0.00000000E+00
  0.52762000E+01  0.78122532E+06  0.78122532E+06  0.78122532E+06  0.00000000E+00  0.00000000E+00  0.00000000E+00
  0.53301000E+01  0.72121069E+06  0.72121069E+06  0.72121069E+06  0.00000000E+00  0.00000000E+00  0.00000000E+00
  0.53839000E+01  0.69581779E+06  0.69581779E+06  0.69581779E+06  0.00000000E+00  0.00000000E+00  0.00000000E+00
  0.54377000E+01  0.69276766E+06  0.69276766E+06  0.69276766E+06  0.00000000E+00  0.00000000E+00  0.00000000E+00
  0.54916000E+01  0.70804452E+06  0.70804452E+06  0.70804452E+06  0.00000000E+00  0.00000000E+00  0.00000000E+00
  0.55454000E+01  0.72619462E+06  0.72619462E+06  0.72619462E+06  0.00000000E+00  0.00000000E+00  0.00000000E+00
  0.55993000E+01  0.71077563E+06  0.71077563E+06  0.71077563E+06  0.00000000E+00  0.00000000E+00  0.00000000E+00
  0.56531000E+01  0.66017861E+06  0.66017861E+06  0.66017861E+06  0.00000000E+00  0.00000000E+00  0.00000000E+00
  0.57069000E+01  0.60222246E+06  0.60222246E+06  0.60222246E+06  0.00000000E+00  0.00000000E+00  0.00000000E+00
  0.57608000E+01  0.55296195E+06  0.55296195E+06  0.55296195E+06  0.00000000E+00  0.00000000E+00  0.00000000E+00
  0.58146000E+01  0.52398032E+06  0.52398032E+06  0.52398032E+06  0.00000000E+00  0.00000000E+00  0.00000000E+00
  0.58684000E+01  0.52017658E+06  0.52017658E+06  0.52017658E+06  0.00000000E+00  0.00000000E+00  0.00000000E+00
  0.59223000E+01  0.54569078E+06  0.54569078E+06  0.54569078E+06  0.00000000E+00  0.00000000E+00  0.00000000E+00
  0.59761000E+01  0.59793176E+06  0.59793176E+06  0.59793176E+06  0.00000000E+00  0.00000000E+00  0.00000000E+00
  0.60300000E+01  0.65633446E+06  0.65633446E+06  0.65633446E+06  0.00000000E+00  0.00000000E+00  0.00000000E+00
  0.60838000E+01  0.70235603E+06  0.70235603E+06  0.70235603E+06  0.00000000E+00  0.00000000E+00  0.00000000E+00
  0.61376000E+01  0.72366357E+06  0.72366357E+06  0.72366357E+06  0.00000000E+00  0.00000000E+00  0.00000000E+00
  0.61915000E+01  0.72462474E+06  0.72462474E+06  0.72462474E+06  0.00000000E+00  0.00000000E+00  0.00000000E+00
  0.62453000E+01  0.73346115E+06  0.73346115E+06  0.73346115E+06  0.00000000E+00  0.00000000E+00  0.00000000E+00
  0.62992000E+01  0.77880569E+06  0.77880569E+06  0.77880569E+06  0.00000000E+00  0.00000000E+00  0.00000000E+00
  0.63530000E+01  0.84347043E+06  0.84347043E+06  0.84347043E+06  0.00000000E+00  0.00000000E+00  0.00000000E+00
  0.64068000E+01  0.86865781E+06  0.86865781E+06  0.86865781E+06  0.00000000E+00  0.00000000E+00  0.00000000E+00
  0.64607000E+01  0.84143965E+06  0.84143965E+06  0.84143965E+06  0.00000000E+00  0.00000000E+00  0.00000000E+00
  0.65145000E+01  0.81248682E+06  0.81248682E+06  0.81248682E+06  0.00000000E+00  0.00000000E+00  0.00000000E+00
  0.65684000E+01  0.80341172E+06  0.80341172E+06  0.80341172E+06  0.00000000E+00  0.00000000E+00  0.00000000E+00
  0.66222000E+01  0.79094864E+06  0.79094864E+06  0.79094864E+06  0.00000000E+00  0.00000000E+00  0.00000000E+00
  0.66760000E+01  0.76691701E+06  0.76691701E+06  0.76691701E+06  0.00000000E+00  0.00000000E+00  0.00000000E+00
  0.67299000E+01  0.75110284E+06  0.75110284E+06  0.75110284E+06  0.00000000E+00  0.00000000E+00  0.00000000E+00
  0.67837000E+01  0.76148549E+06  0.76148549E+06  0.76148549E+06  0.00000000E+00  0.00000000E+00  0.00000000E+00
  0.68375000E+01  0.79456910E+06  0.79456910E+06  0.79456910E+06  0.00000000E+00  0.00000000E+00  0.00000000E+00
  0.68914000E+01  0.83265919E+06  0.83265919E+06  0.83265919E+06  0.00000000E+00  0.00000000E+00  0.00000000E+00
  0.69452000E+01  0.85951657E+06  0.85951657E+06  0.85951657E+06  0.00000000E+00  0.00000000E+00  0.00000000E+00
  0.69991000E+01  0.87054773E+06  0.87054773E+06  0.87054773E+06  0.00000000E+00  0.00000000E+00  0.00000000E+00
  0.70529000E+01  0.85895216E+06  0.85895216E+06  0.85895216E+06  0.00000000E+00  0.00000000E+00  0.00000000E+00
  0.71067000E+01  0.82793768E+06  0.82793768E+06  0.82793768E+06  0.00000000E+00  0.00000000E+00  0.00000000E+00
  0.71606000E+01  0.79601434E+06  0.79601434E+06  0.79601434E+06  0.00000000E+00  0.00000000E+00  0.00000000E+00
  0.72144000E+01  0.79483575E+06  0.79483575E+06  0.79483575E+06  0.00000000E+00  0.00000000E+00  0.00000000E+00
  0.72683000E+01  0.85784841E+06  0.85784841E+06  0.85784841E+06  0.00000000E+00  0.00000000E+00  0.00000000E+00
  0.73221000E+01  0.96786197E+06  0.96786197E+06  0.96786197E+06  0.00000000E+00  0.00000000E+00  0.00000000E+00
  0.73759000E+01  0.10714932E+07  0.10714932E+07  0.10714932E+07  0.00000000E+00  0.00000000E+00  0.00000000E+00
  0.74298000E+01  0.11538744E+07  0.11538744E+07  0.11538744E+07  0.00000000E+00  0.00000000E+00  0.00000000E+00
  0.74836000E+01  0.12230828E+07  0.12230828E+07  0.12230828E+07  0.00000000E+00  0.00000000E+00  0.00000000E+00
  0.75375000E+01  0.12662725E+07  0.12662725E+07  0.12662725E+07  0.00000000E+00  0.00000000E+00  0.00000000E+00
  0.75913000E+01  0.12709987E+07  0.12709987E+07  0.12709987E+07  0.00000000E+00  0.00000000E+00  0.00000000E+00
  0.76451000E+01  0.12514338E+07  0.12514338E+07  0.12514338E+07  0.00000000E+00  0.00000000E+00  0.00000000E+00
  0.76990000E+01  0.12268636E+07  0.12268636E+07  0.12268636E+07  0.00000000E+00  0.00000000E+00  0.00000000E+00
  0.77528000E+01  0.11931575E+07  0.11931575E+07  0.11931575E+07  0.00000000E+00  0.00000000E+00  0.00000000E+00
  0.78067000E+01  0.11408427E+07  0.11408427E+07  0.11408427E+07  0.00000000E+00  0.00000000E+00  0.00000000E+00
  0.78605000E+01  0.10807868E+07  0.10807868E+07  0.10807868E+07  0.00000000E+00  0.00000000E+00  0.00000000E+00
  0.79143000E+01  0.10396780E+07  0.10396780E+07  0.10396780E+07  0.00000000E+00  0.00000000E+00  0.00000000E+00
  0.79682000E+01  0.10406001E+07  0.10406001E+07  0.10406001E+07  0.00000000E+00  0.00000000E+00  0.00000000E+00
  0.80220000E+01  0.10816630E+07  0.10816630E+07  0.10816630E+07  0.00000000E+00  0.00000000E+00  0.00000000E+00
  0.80758000E+01  0.11234160E+07  0.11234160E+07  0.11234160E+07  0.00000000E+00  0.00000000E+00  0.00000000E+00
  0.81297000E+01  0.11356878E+07  0.11356878E+07  0.11356878E+07  0.00000000E+00  0.00000000E+00  0.00000000E+00
  0.81835000E+01  0.11157980E+07  0.11157980E+07  0.11157980E+07  0.00000000E+00  0.00000000E+00  0.00000000E+00
  0.82374000E+01  0.10643620E+07  0.10643620E+07  0.10643620E+07  0.00000000E+00  0.00000000E+00  0.00000000E+00
  0.82912000E+01  0.99542681E+06  0.99542681E+06  0.99542681E+06  0.00000000E+00  0.00000000E+00  0.00000000E+00
  0.83450000E+01  0.93711277E+06  0.93711277E+06  0.93711277E+06  0.00000000E+00  0.00000000E+00  0.00000000E+00
  0.83989000E+01  0.89378467E+06  0.89378467E+06  0.89378467E+06  0.00000000E+00  0.00000000E+00  0.00000000E+00
  0.84527000E+01  0.86215853E+06  0.86215853E+06  0.86215853E+06  0.00000000E+00  0.00000000E+00  0.00000000E+00
  0.85066000E+01  0.84606502E+06  0.84606502E+06  0.84606502E+06  0.00000000E+00  0.00000000E+00  0.00000000E+00
  0.85604000E+01  0.83070718E+06  0.83070718E+06  0.83070718E+06  0.00000000E+00  0.00000000E+00  0.00000000E+00
  0.86142000E+01  0.79234217E+06  0.79234217E+06  0.79234217E+06  0.00000000E+00  0.00000000E+00  0.00000000E+00
  0.86681000E+01  0.74236844E+06  0.74236844E+06  0.74236844E+06  0.00000000E+00  0.00000000E+00  0.00000000E+00
  0.87219000E+01  0.71561707E+06  0.71561707E+06  0.71561707E+06  0.00000000E+00  0.00000000E+00  0.00000000E+00
  0.87758000E+01  0.71696558E+06  0.71696558E+06  0.71696558E+06  0.00000000E+00  0.00000000E+00  0.00000000E+00
  0.88296000E+01  0.71425453E+06  0.71425453E+06  0.71425453E+06  0.00000000E+00  0.00000000E+00  0.00000000E+00
  0.88834000E+01  0.69307812E+06  0.69307812E+06  0.69307812E+06  0.00000000E+00  0.00000000E+00  0.00000000E+00
  0.89373000E+01  0.66554237E+06  0.66554237E+06  0.66554237E+06  0.00000000E+00  0.00000000E+00  0.00000000E+00
  0.89911000E+01  0.64107159E+06  0.64107159E+06  0.64107159E+06  0.00000000E+00  0.00000000E+00  0.00000000E+00
  0.90449000E+01  0.62016503E+06  0.62016503E+06  0.62016503E+06  0.00000000E+00  0.00000000E+00  0.00000000E+00
  0.90988000E+01  0.60803412E+06  0.60803412E+06  0.60803412E+06  0.00000000E+00  0.00000000E+00  0.00000000E+00
  0.91526000E+01  0.61921191E+06  0.61921191E+06  0.61921191E+06  0.00000000E+00  0.00000000E+00  0.00000000E+00
  0.92065000E+01  0.66295680E+06  0.66295680E+06  0.66295680E+06  0.00000000E+00  0.00000000E+00  0.00000000E+00
  0.92603000E+01  0.73729733E+06  0.73729733E+06  0.73729733E+06  0.00000000E+00  0.00000000E+00  0.00000000E+00
  0.93141000E+01  0.80800511E+06  0.80800511E+06  0.80800511E+06  0.00000000E+00  0.00000000E+00  0.00000000E+00
  0.93680000E+01  0.83567556E+06  0.83567556E+06  0.83567556E+06  0.00000000E+00  0.00000000E+00  0.00000000E+00
  0.94218000E+01  0.83078486E+06  0.83078486E+06  0.83078486E+06  0.00000000E+00  0.00000000E+00  0.00000000E+00
