   #Energy      xx              yy   
  0.00000000E+00  0.00000000E+00  0.00000000E+00
  0.53800000E-01  0.26657124E+00  0.26657124E+00
  0.10770000E+00  0.74896133E+00  0.74896133E+00
  0.16150000E+00  0.10909030E+01  0.10909030E+01
  0.21540000E+00  0.11788642E+01  0.11788642E+01
  0.26920000E+00  0.10960744E+01  0.10960744E+01
  0.32300000E+00  0.10068698E+01  0.10068698E+01
  0.37690000E+00  0.94796318E+00  0.94796318E+00
  0.43070000E+00  0.89707906E+00  0.89707906E+00
  0.48460000E+00  0.89691607E+00  0.89691607E+00
  0.53840000E+00  0.99635679E+00  0.99635679E+00
  0.59220000E+00  0.12046398E+01  0.12046398E+01
  0.64610000E+00  0.14405756E+01  0.14405756E+01
  0.69990000E+00  0.15534203E+01  0.15534203E+01
  0.75370000E+00  0.15681071E+01  0.15681071E+01
  0.80760000E+00  0.15890757E+01  0.15890757E+01
  0.86140000E+00  0.16360354E+01  0.16360354E+01
  0.91530000E+00  0.18095831E+01  0.18095831E+01
  0.96910000E+00  0.21649958E+01  0.21649958E+01
  0.10229000E+01  0.26197573E+01  0.26197573E+01
  0.10768000E+01  0.31222930E+01  0.31222930E+01
  0.11306000E+01  0.35715648E+01  0.35715648E+01
  0.11845000E+01  0.37494154E+01  0.37494154E+01
  0.12383000E+01  0.35634351E+01  0.35634351E+01
  0.12921000E+01  0.31205150E+01  0.31205150E+01
  0.13460000E+01  0.26498030E+01  0.26498030E+01
  0.13998000E+01  0.22899021E+01  0.22899021E+01
  0.14537000E+01  0.20426289E+01  0.20426289E+01
  0.15075000E+01  0.18757347E+01  0.18757347E+01
  0.15613000E+01  0.17212192E+01  0.17212192E+01
  0.16152000E+01  0.15390034E+01  0.15390034E+01
  0.16690000E+01  0.13540829E+01  0.13540829E+01
  0.17228000E+01  0.12013246E+01  0.12013246E+01
  0.17767000E+01  0.10891054E+01  0.10891054E+01
  0.18305000E+01  0.10180955E+01  0.10180955E+01
  0.18844000E+01  0.98894325E+00  0.98894325E+00
  0.19382000E+01  0.10072858E+01  0.10072858E+01
  0.19920000E+01  0.10819255E+01  0.10819255E+01
  0.20459000E+01  0.11752506E+01  0.11752506E+01
  0.20997000E+01  0.12214524E+01  0.12214524E+01
  0.21536000E+01  0.12405853E+01  0.12405853E+01
  0.22074000E+01  0.13166762E+01  0.13166762E+01
  0.22612000E+01  0.14138235E+01  0.14138235E+01
  0.23151000E+01  0.14430332E+01  0.14430332E+01
  0.23689000E+01  0.14039691E+01  0.14039691E+01
  0.24228000E+01  0.13510732E+01  0.13510732E+01
  0.24766000E+01  0.13268868E+01  0.13268868E+01
  0.25304000E+01  0.13529613E+01  0.13529613E+01
  0.25843000E+01  0.13903934E+01  0.13903934E+01
  0.26381000E+01  0.13823654E+01  0.13823654E+01
  0.26919000E+01  0.13423832E+01  0.13423832E+01
  0.27458000E+01  0.13123888E+01  0.13123888E+01
  0.27996000E+01  0.12750451E+01  0.12750451E+01
  0.28535000E+01  0.12022891E+01  0.12022891E+01
  0.29073000E+01  0.11166675E+01  0.11166675E+01
  0.29611000E+01  0.10657255E+01  0.10657255E+01
  0.30150000E+01  0.10609993E+01  0.10609993E+01
  0.30688000E+01  0.10723231E+01  0.10723231E+01
  0.31227000E+01  0.10680807E+01  0.10680807E+01
  0.31765000E+01  0.10178500E+01  0.10178500E+01
  0.32303000E+01  0.95174642E+00  0.95174642E+00
  0.32842000E+01  0.94843312E+00  0.94843312E+00
  0.33380000E+01  0.10068828E+01  0.10068828E+01
  0.33919000E+01  0.10633887E+01  0.10633887E+01
  0.34457000E+01  0.10579264E+01  0.10579264E+01
  0.34995000E+01  0.98280404E+00  0.98280404E+00
  0.35534000E+01  0.92142311E+00  0.92142311E+00
  0.36072000E+01  0.92271326E+00  0.92271326E+00
  0.36611000E+01  0.97973610E+00  0.97973610E+00
  0.37149000E+01  0.10314249E+01  0.10314249E+01
  0.37687000E+01  0.10278257E+01  0.10278257E+01
  0.38226000E+01  0.10128614E+01  0.10128614E+01
  0.38764000E+01  0.10477120E+01  0.10477120E+01
  0.39302000E+01  0.11145194E+01  0.11145194E+01
  0.39841000E+01  0.11652439E+01  0.11652439E+01
  0.40379000E+01  0.12223256E+01  0.12223256E+01
  0.40918000E+01  0.12960218E+01  0.12960218E+01
  0.41456000E+01  0.13448993E+01  0.13448993E+01
  0.41994000E+01  0.13599527E+01  0.13599527E+01
  0.42533000E+01  0.14082916E+01  0.14082916E+01
  0.43071000E+01  0.15172585E+01  0.15172585E+01
  0.43610000E+01  0.15913976E+01  0.15913976E+01
  0.44148000E+01  0.15624479E+01  0.15624479E+01
  0.44686000E+01  0.14848306E+01  0.14848306E+01
  0.45225000E+01  0.14142006E+01  0.14142006E+01
  0.45763000E+01  0.13838697E+01  0.13838697E+01
  0.46302000E+01  0.14172401E+01  0.14172401E+01
  0.46840000E+01  0.14983739E+01  0.14983739E+01
  0.47378000E+01  0.16320619E+01  0.16320619E+01
  0.47917000E+01  0.17988278E+01  0.17988278E+01
  0.48455000E+01  0.19759474E+01  0.19759474E+01
  0.48993000E+01  0.21877877E+01  0.21877877E+01
  0.49532000E+01  0.24073161E+01  0.24073161E+01
  0.50070000E+01  0.26268541E+01  0.26268541E+01
  0.50609000E+01  0.28242453E+01  0.28242453E+01
  0.51147000E+01  0.28849427E+01  0.28849427E+01
  0.51685000E+01  0.26648171E+01  0.26648171E+01
  0.52224000E+01  0.22812414E+01  0.22812414E+01
  0.52762000E+01  0.19726840E+01  0.19726840E+01
  0.53301000E+01  0.18320621E+01  0.18320621E+01
  0.53839000E+01  0.18111577E+01  0.18111577E+01
  0.54377000E+01  0.18357785E+01  0.18357785E+01
  0.54916000E+01  0.18840363E+01  0.18840363E+01
  0.55454000E+01  0.18767362E+01  0.18767362E+01
  0.55993000E+01  0.17424455E+01  0.17424455E+01
  0.56531000E+01  0.15686471E+01  0.15686471E+01
  0.57069000E+01  0.14418028E+01  0.14418028E+01
  0.57608000E+01  0.13748676E+01  0.13748676E+01
  0.58146000E+01  0.13787671E+01  0.13787671E+01
  0.58684000E+01  0.14550159E+01  0.14550159E+01
  0.59223000E+01  0.16131679E+01  0.16131679E+01
  0.59761000E+01  0.18288647E+01  0.18288647E+01
  0.60300000E+01  0.20197699E+01  0.20197699E+01
  0.60838000E+01  0.21290304E+01  0.21290304E+01
  0.61376000E+01  0.21437075E+01  0.21437075E+01
  0.61915000E+01  0.21253016E+01  0.21253016E+01
  0.62453000E+01  0.21791123E+01  0.21791123E+01
  0.62992000E+01  0.23444673E+01  0.23444673E+01
  0.63530000E+01  0.24786394E+01  0.24786394E+01
  0.64068000E+01  0.24022046E+01  0.24022046E+01
  0.64607000E+01  0.22210361E+01  0.22210361E+01
  0.65145000E+01  0.21262043E+01  0.21262043E+01
  0.65684000E+01  0.20968954E+01  0.20968954E+01
  0.66222000E+01  0.20459417E+01  0.20459417E+01
  0.66760000E+01  0.19890981E+01  0.19890981E+01
  0.67299000E+01  0.19942681E+01  0.19942681E+01
  0.67837000E+01  0.20825675E+01  0.20825675E+01
  0.68375000E+01  0.22102138E+01  0.22102138E+01
  0.68914000E+01  0.23096858E+01  0.23096858E+01
  0.69452000E+01  0.23443221E+01  0.23443221E+01
  0.69991000E+01  0.23200896E+01  0.23200896E+01
  0.70529000E+01  0.22405525E+01  0.22405525E+01
  0.71067000E+01  0.21541523E+01  0.21541523E+01
  0.71606000E+01  0.21302554E+01  0.21302554E+01
  0.72144000E+01  0.22527143E+01  0.22527143E+01
  0.72683000E+01  0.25743233E+01  0.25743233E+01
  0.73221000E+01  0.29604172E+01  0.29604172E+01
  0.73759000E+01  0.32112425E+01  0.32112425E+01
  0.74298000E+01  0.33274744E+01  0.33274744E+01
  0.74836000E+01  0.33399421E+01  0.33399421E+01
  0.75375000E+01  0.32070868E+01  0.32070868E+01
  0.75913000E+01  0.29656764E+01  0.29656764E+01
  0.76451000E+01  0.27241508E+01  0.27241508E+01
  0.76990000E+01  0.25185036E+01  0.25185036E+01
  0.77528000E+01  0.23122372E+01  0.23122372E+01
  0.78067000E+01  0.21134485E+01  0.21134485E+01
  0.78605000E+01  0.19803876E+01  0.19803876E+01
  0.79143000E+01  0.19543142E+01  0.19543142E+01
  0.79682000E+01  0.20293307E+01  0.20293307E+01
  0.80220000E+01  0.21268538E+01  0.21268538E+01
  0.80758000E+01  0.21226547E+01  0.21226547E+01
  0.81297000E+01  0.20011558E+01  0.20011558E+01
  0.81835000E+01  0.18163715E+01  0.18163715E+01
  0.82374000E+01  0.16148125E+01  0.16148125E+01
  0.82912000E+01  0.14614349E+01  0.14614349E+01
  0.83450000E+01  0.13812360E+01  0.13812360E+01
  0.83989000E+01  0.13372852E+01  0.13372852E+01
  0.84527000E+01  0.13174088E+01  0.13174088E+01
  0.85066000E+01  0.13127986E+01  0.13127986E+01
  0.85604000E+01  0.12807192E+01  0.12807192E+01
  0.86142000E+01  0.12084673E+01  0.12084673E+01
  0.86681000E+01  0.11569264E+01  0.11569264E+01
  0.87219000E+01  0.11683198E+01  0.11683198E+01
  0.87758000E+01  0.12071890E+01  0.12071890E+01
  0.88296000E+01  0.12080504E+01  0.12080504E+01
  0.88834000E+01  0.11764374E+01  0.11764374E+01
  0.89373000E+01  0.11492574E+01  0.11492574E+01
  0.89911000E+01  0.11374296E+01  0.11374296E+01
  0.90449000E+01  0.11393572E+01  0.11393572E+01
  0.90988000E+01  0.11698052E+01  0.11698052E+01
  0.91526000E+01  0.12559267E+01  0.12559267E+01
  0.92065000E+01  0.14073236E+01  0.14073236E+01
  0.92603000E+01  0.15945317E+01  0.15945317E+01
  0.93141000E+01  0.17081659E+01  0.17081659E+01
  0.93680000E+01  0.16888663E+01  0.16888663E+01
  0.94218000E+01  0.16218095E+01  0.16218095E+01
  0.94757000E+01  0.15618256E+01  0.15618256E+01
  0.95295000E+01  0.14940571E+01  0.14940571E+01
  0.95833000E+01  0.14240347E+01  0.14240347E+01
  0.96372000E+01  0.13861944E+01  0.13861944E+01
  0.96910000E+01  0.14021242E+01  0.14021242E+01
  0.97449000E+01  0.14429487E+01  0.14429487E+01
  0.97987000E+01  0.14681896E+01  0.14681896E+01
  0.98525000E+01  0.14760921E+01  0.14760921E+01
  0.99064000E+01  0.14881547E+01  0.14881547E+01
  0.99602000E+01  0.15158807E+01  0.15158807E+01
  0.10014000E+02  0.15492200E+01  0.15492200E+01
  0.10067900E+02  0.15638802E+01  0.15638802E+01
  0.10121700E+02  0.15556153E+01  0.15556153E+01
  0.10175600E+02  0.15218774E+01  0.15218774E+01
  0.10229400E+02  0.14447771E+01  0.14447771E+01
  0.10283200E+02  0.13495629E+01  0.13495629E+01
  0.10337100E+02  0.12928948E+01  0.12928948E+01
  0.10390900E+02  0.12657467E+01  0.12657467E+01
  0.10444800E+02  0.12435568E+01  0.12435568E+01
  0.10498600E+02  0.12236783E+01  0.12236783E+01
  0.10552400E+02  0.12146586E+01  0.12146586E+01
  0.10606300E+02  0.12298279E+01  0.12298279E+01
  0.10660100E+02  0.12798313E+01  0.12798313E+01
  0.10714000E+02  0.13439161E+01  0.13439161E+01
  0.10767800E+02  0.13836900E+01  0.13836900E+01
  0.10821600E+02  0.14085490E+01  0.14085490E+01
  0.10875500E+02  0.14110121E+01  0.14110121E+01
  0.10929300E+02  0.13693387E+01  0.13693387E+01
  0.10983200E+02  0.13186221E+01  0.13186221E+01
  0.11037000E+02  0.13097993E+01  0.13097993E+01
  0.11090800E+02  0.13653779E+01  0.13653779E+01
  0.11144700E+02  0.14497068E+01  0.14497068E+01
  0.11198500E+02  0.15192680E+01  0.15192680E+01
  0.11252300E+02  0.15791040E+01  0.15791040E+01
  0.11306200E+02  0.16823251E+01  0.16823251E+01
  0.11360000E+02  0.18839265E+01  0.18839265E+01
  0.11413900E+02  0.21440711E+01  0.21440711E+01
  0.11467700E+02  0.23732414E+01  0.23732414E+01
  0.11521500E+02  0.25147796E+01  0.25147796E+01
  0.11575400E+02  0.25016646E+01  0.25016646E+01
  0.11629200E+02  0.23286823E+01  0.23286823E+01
  0.11683100E+02  0.20817805E+01  0.20817805E+01
  0.11736900E+02  0.18444846E+01  0.18444846E+01
  0.11790700E+02  0.16546610E+01  0.16546610E+01
  0.11844600E+02  0.15262569E+01  0.15262569E+01
  0.11898400E+02  0.14453570E+01  0.14453570E+01
  0.11952300E+02  0.13945595E+01  0.13945595E+01
  0.12006100E+02  0.13545417E+01  0.13545417E+01
  0.12059900E+02  0.13255647E+01  0.13255647E+01
  0.12113800E+02  0.13230051E+01  0.13230051E+01
  0.12167600E+02  0.13467077E+01  0.13467077E+01
  0.12221400E+02  0.14063792E+01  0.14063792E+01
  0.12275300E+02  0.14993426E+01  0.14993426E+01
  0.12329100E+02  0.15693344E+01  0.15693344E+01
  0.12383000E+02  0.16126793E+01  0.16126793E+01
  0.12436800E+02  0.16645381E+01  0.16645381E+01
  0.12490600E+02  0.17171871E+01  0.17171871E+01
  0.12544500E+02  0.17540844E+01  0.17540844E+01
  0.12598300E+02  0.17716474E+01  0.17716474E+01
  0.12652200E+02  0.17921622E+01  0.17921622E+01
  0.12706000E+02  0.17922139E+01  0.17922139E+01
  0.12759800E+02  0.17333448E+01  0.17333448E+01
  0.12813700E+02  0.16451493E+01  0.16451493E+01
  0.12867500E+02  0.15660822E+01  0.15660822E+01
  0.12921400E+02  0.14976456E+01  0.14976456E+01
  0.12975200E+02  0.14567740E+01  0.14567740E+01
  0.13029000E+02  0.14723587E+01  0.14723587E+01
  0.13082900E+02  0.15514349E+01  0.15514349E+01
  0.13136700E+02  0.17085097E+01  0.17085097E+01
  0.13190500E+02  0.19774623E+01  0.19774623E+01
  0.13244400E+02  0.23708594E+01  0.23708594E+01
  0.13298200E+02  0.28129755E+01  0.28129755E+01
  0.13352100E+02  0.32073452E+01  0.32073452E+01
  0.13405900E+02  0.35752105E+01  0.35752105E+01
  0.13459700E+02  0.37881656E+01  0.37881656E+01
  0.13513600E+02  0.37283828E+01  0.37283828E+01
  0.13567400E+02  0.35682590E+01  0.35682590E+01
  0.13621300E+02  0.34606116E+01  0.34606116E+01
  0.13675100E+02  0.33200510E+01  0.33200510E+01
  0.13728900E+02  0.30231096E+01  0.30231096E+01
  0.13782800E+02  0.26296711E+01  0.26296711E+01
  0.13836600E+02  0.22977611E+01  0.22977611E+01
  0.13890500E+02  0.21053261E+01  0.21053261E+01
  0.13944300E+02  0.20226685E+01  0.20226685E+01
  0.13998100E+02  0.19693971E+01  0.19693971E+01
  0.14052000E+02  0.19060547E+01  0.19060547E+01
  0.14105800E+02  0.18448804E+01  0.18448804E+01
  0.14159700E+02  0.18021180E+01  0.18021180E+01
  0.14213500E+02  0.17874544E+01  0.17874544E+01
  0.14267300E+02  0.17982400E+01  0.17982400E+01
  0.14321200E+02  0.17993845E+01  0.17993845E+01
  0.14375000E+02  0.17849676E+01  0.17849676E+01
  0.14428800E+02  0.17886281E+01  0.17886281E+01
  0.14482700E+02  0.18116317E+01  0.18116317E+01
  0.14536500E+02  0.18321698E+01  0.18321698E+01
  0.14590400E+02  0.18746690E+01  0.18746690E+01
  0.14644200E+02  0.19609190E+01  0.19609190E+01
  0.14698000E+02  0.20367483E+01  0.20367483E+01
  0.14751900E+02  0.20264044E+01  0.20264044E+01
  0.14805700E+02  0.19845707E+01  0.19845707E+01
  0.14859600E+02  0.20066284E+01  0.20066284E+01
  0.14913400E+02  0.20781220E+01  0.20781220E+01
  0.14967200E+02  0.21129692E+01  0.21129692E+01
  0.15021100E+02  0.21048588E+01  0.21048588E+01
  0.15074900E+02  0.20735646E+01  0.20735646E+01
  0.15128800E+02  0.20119252E+01  0.20119252E+01
  0.15182600E+02  0.19225258E+01  0.19225258E+01
  0.15236400E+02  0.18423771E+01  0.18423771E+01
  0.15290300E+02  0.18439711E+01  0.18439711E+01
  0.15344100E+02  0.19183955E+01  0.19183955E+01
  0.15397900E+02  0.19708607E+01  0.19708607E+01
  0.15451800E+02  0.19977860E+01  0.19977860E+01
  0.15505600E+02  0.20460575E+01  0.20460575E+01
  0.15559500E+02  0.21002656E+01  0.21002656E+01
  0.15613300E+02  0.21040084E+01  0.21040084E+01
  0.15667100E+02  0.20772058E+01  0.20772058E+01
  0.15721000E+02  0.20763791E+01  0.20763791E+01
  0.15774800E+02  0.21118031E+01  0.21118031E+01
  0.15828700E+02  0.21955991E+01  0.21955991E+01
  0.15882500E+02  0.23197929E+01  0.23197929E+01
  0.15936300E+02  0.24279718E+01  0.24279718E+01
  0.15990200E+02  0.25241006E+01  0.25241006E+01
  0.16044000E+02  0.26549025E+01  0.26549025E+01
  0.16097900E+02  0.27231732E+01  0.27231732E+01
  0.16151700E+02  0.25632461E+01  0.25632461E+01
  0.16205500E+02  0.22340368E+01  0.22340368E+01
  0.16259400E+02  0.19286435E+01  0.19286435E+01
  0.16313200E+02  0.17048182E+01  0.17048182E+01
  0.16367000E+02  0.15506221E+01  0.15506221E+01
  0.16420900E+02  0.14561905E+01  0.14561905E+01
  0.16474700E+02  0.13904067E+01  0.13904067E+01
  0.16528600E+02  0.13243031E+01  0.13243031E+01
  0.16582400E+02  0.12869651E+01  0.12869651E+01
  0.16636200E+02  0.13272995E+01  0.13272995E+01
  0.16690100E+02  0.14419059E+01  0.14419059E+01
  0.16743900E+02  0.16064134E+01  0.16064134E+01
  0.16797800E+02  0.17587069E+01  0.17587069E+01
  0.16851600E+02  0.17967614E+01  0.17967614E+01
  0.16905400E+02  0.17320037E+01  0.17320037E+01
  0.16959300E+02  0.16565678E+01  0.16565678E+01
  0.17013100E+02  0.16244340E+01  0.16244340E+01
  0.17067000E+02  0.16466168E+01  0.16466168E+01
  0.17120800E+02  0.16868144E+01  0.16868144E+01
  0.17174600E+02  0.16716531E+01  0.16716531E+01
  0.17228500E+02  0.15939628E+01  0.15939628E+01
  0.17282300E+02  0.15260399E+01  0.15260399E+01
  0.17336100E+02  0.15005068E+01  0.15005068E+01
  0.17390000E+02  0.14970526E+01  0.14970526E+01
  0.17443800E+02  0.15089861E+01  0.15089861E+01
  0.17497700E+02  0.15359042E+01  0.15359042E+01
  0.17551500E+02  0.15783510E+01  0.15783510E+01
  0.17605300E+02  0.16353432E+01  0.16353432E+01
  0.17659200E+02  0.16920951E+01  0.16920951E+01
  0.17713000E+02  0.17187813E+01  0.17187813E+01
  0.17766900E+02  0.17087079E+01  0.17087079E+01
  0.17820700E+02  0.17003971E+01  0.17003971E+01
  0.17874500E+02  0.17436614E+01  0.17436614E+01
  0.17928400E+02  0.18561522E+01  0.18561522E+01
  0.17982200E+02  0.20174809E+01  0.20174809E+01
  0.18036100E+02  0.22005161E+01  0.22005161E+01
  0.18089900E+02  0.23282393E+01  0.23282393E+01
  0.18143700E+02  0.23541510E+01  0.23541510E+01
  0.18197600E+02  0.23713989E+01  0.23713989E+01
  0.18251400E+02  0.24659767E+01  0.24659767E+01
  0.18305300E+02  0.26266590E+01  0.26266590E+01
  0.18359100E+02  0.27620705E+01  0.27620705E+01
  0.18412900E+02  0.28322706E+01  0.28322706E+01
  0.18466800E+02  0.29160798E+01  0.29160798E+01
  0.18520600E+02  0.30603975E+01  0.30603975E+01
  0.18574400E+02  0.32819113E+01  0.32819113E+01
  0.18628300E+02  0.36178942E+01  0.36178942E+01
  0.18682100E+02  0.39960499E+01  0.39960499E+01
  0.18736000E+02  0.42264265E+01  0.42264265E+01
  0.18789800E+02  0.42863602E+01  0.42863602E+01
  0.18843600E+02  0.42268831E+01  0.42268831E+01
  0.18897500E+02  0.40997789E+01  0.40997789E+01
  0.18951300E+02  0.39378392E+01  0.39378392E+01
  0.19005200E+02  0.36970605E+01  0.36970605E+01
  0.19059000E+02  0.34143301E+01  0.34143301E+01
  0.19112800E+02  0.31814870E+01  0.31814870E+01
  0.19166700E+02  0.29985193E+01  0.29985193E+01
  0.19220500E+02  0.28501991E+01  0.28501991E+01
  0.19274400E+02  0.27765780E+01  0.27765780E+01
  0.19328200E+02  0.28011322E+01  0.28011322E+01
  0.19382000E+02  0.28328010E+01  0.28328010E+01
  0.19435900E+02  0.27403883E+01  0.27403883E+01
  0.19489700E+02  0.25848056E+01  0.25848056E+01
  0.19543500E+02  0.25107607E+01  0.25107607E+01
  0.19597400E+02  0.25429268E+01  0.25429268E+01
  0.19651200E+02  0.26016368E+01  0.26016368E+01
  0.19705100E+02  0.26043311E+01  0.26043311E+01
  0.19758900E+02  0.25519533E+01  0.25519533E+01
  0.19812700E+02  0.24973376E+01  0.24973376E+01
  0.19866600E+02  0.24470378E+01  0.24470378E+01
  0.19920400E+02  0.24004251E+01  0.24004251E+01
  0.19974300E+02  0.23403515E+01  0.23403515E+01
  0.20028100E+02  0.22655581E+01  0.22655581E+01
  0.20081900E+02  0.22127997E+01  0.22127997E+01
  0.20135800E+02  0.22080407E+01  0.22080407E+01
  0.20189600E+02  0.22314932E+01  0.22314932E+01
  0.20243500E+02  0.22495097E+01  0.22495097E+01
  0.20297300E+02  0.22365344E+01  0.22365344E+01
  0.20351100E+02  0.21924953E+01  0.21924953E+01
  0.20405000E+02  0.21716919E+01  0.21716919E+01
  0.20458800E+02  0.22291317E+01  0.22291317E+01
  0.20512600E+02  0.23215201E+01  0.23215201E+01
  0.20566500E+02  0.23711628E+01  0.23711628E+01
  0.20620300E+02  0.23894831E+01  0.23894831E+01
  0.20674200E+02  0.24275167E+01  0.24275167E+01
  0.20728000E+02  0.24767171E+01  0.24767171E+01
  0.20781800E+02  0.24905064E+01  0.24905064E+01
  0.20835700E+02  0.24506729E+01  0.24506729E+01
  0.20889500E+02  0.23690526E+01  0.23690526E+01
  0.20943400E+02  0.22670960E+01  0.22670960E+01
  0.20997200E+02  0.21786021E+01  0.21786021E+01
  0.21051000E+02  0.21301261E+01  0.21301261E+01
  0.21104900E+02  0.21109454E+01  0.21109454E+01
  0.21158700E+02  0.20877115E+01  0.20877115E+01
  0.21212600E+02  0.20344584E+01  0.20344584E+01
  0.21266400E+02  0.19713114E+01  0.19713114E+01
  0.21320200E+02  0.19452337E+01  0.19452337E+01
  0.21374100E+02  0.19542810E+01  0.19542810E+01
  0.21427900E+02  0.19664449E+01  0.19664449E+01
  0.21481800E+02  0.19999246E+01  0.19999246E+01
  0.21535600E+02  0.20701174E+01  0.20701174E+01
  0.21589400E+02  0.21536706E+01  0.21536706E+01
  0.21643300E+02  0.22250803E+01  0.22250803E+01
  0.21697100E+02  0.22713076E+01  0.22713076E+01
  0.21750900E+02  0.22981261E+01  0.22981261E+01
  0.21804800E+02  0.23250600E+01  0.23250600E+01
  0.21858600E+02  0.23515603E+01  0.23515603E+01
