  #energy          xx             yy              zz              xy              yz              zx
  0.00000000E+00  0.72995760E+00  0.72995760E+00  0.72995760E+00  0.10000000E+01  0.10000000E+01  0.10000000E+01
  0.53800000E-01  0.72656747E+00  0.72656747E+00  0.72656747E+00  0.10000000E+01  0.10000000E+01  0.10000000E+01
  0.10770000E+00  0.71693916E+00  0.71693916E+00  0.71693916E+00  0.10000000E+01  0.10000000E+01  0.10000000E+01
  0.16150000E+00  0.70334597E+00  0.70334597E+00  0.70334597E+00  0.10000000E+01  0.10000000E+01  0.10000000E+01
  0.21540000E+00  0.68040800E+00  0.68040800E+00  0.68040800E+00  0.10000000E+01  0.10000000E+01  0.10000000E+01
  0.26920000E+00  0.64335249E+00  0.64335249E+00  0.64335249E+00  0.10000000E+01  0.10000000E+01  0.10000000E+01
  0.32300000E+00  0.60126195E+00  0.60126195E+00  0.60126195E+00  0.10000000E+01  0.10000000E+01  0.10000000E+01
  0.37690000E+00  0.56366348E+00  0.56366348E+00  0.56366348E+00  0.10000000E+01  0.10000000E+01  0.10000000E+01
  0.43070000E+00  0.53063068E+00  0.53063068E+00  0.53063068E+00  0.10000000E+01  0.10000000E+01  0.10000000E+01
  0.48460000E+00  0.51446399E+00  0.51446399E+00  0.51446399E+00  0.10000000E+01  0.10000000E+01  0.10000000E+01
  0.53840000E+00  0.51924322E+00  0.51924322E+00  0.51924322E+00  0.10000000E+01  0.10000000E+01  0.10000000E+01
  0.59220000E+00  0.53351199E+00  0.53351199E+00  0.53351199E+00  0.10000000E+01  0.10000000E+01  0.10000000E+01
  0.64610000E+00  0.54399162E+00  0.54399162E+00  0.54399162E+00  0.10000000E+01  0.10000000E+01  0.10000000E+01
  0.69990000E+00  0.54139766E+00  0.54139766E+00  0.54139766E+00  0.10000000E+01  0.10000000E+01  0.10000000E+01
  0.75370000E+00  0.53047254E+00  0.53047254E+00  0.53047254E+00  0.10000000E+01  0.10000000E+01  0.10000000E+01
  0.80760000E+00  0.52124042E+00  0.52124042E+00  0.52124042E+00  0.10000000E+01  0.10000000E+01  0.10000000E+01
  0.86140000E+00  0.51613188E+00  0.51613188E+00  0.51613188E+00  0.10000000E+01  0.10000000E+01  0.10000000E+01
  0.91530000E+00  0.52405410E+00  0.52405410E+00  0.52405410E+00  0.10000000E+01  0.10000000E+01  0.10000000E+01
  0.96910000E+00  0.54333065E+00  0.54333065E+00  0.54333065E+00  0.10000000E+01  0.10000000E+01  0.10000000E+01
  0.10229000E+01  0.56468789E+00  0.56468789E+00  0.56468789E+00  0.10000000E+01  0.10000000E+01  0.10000000E+01
  0.10768000E+01  0.58729615E+00  0.58729615E+00  0.58729615E+00  0.10000000E+01  0.10000000E+01  0.10000000E+01
  0.11306000E+01  0.61124545E+00  0.61124545E+00  0.61124545E+00  0.10000000E+01  0.10000000E+01  0.10000000E+01
  0.11845000E+01  0.63308660E+00  0.63308660E+00  0.63308660E+00  0.10000000E+01  0.10000000E+01  0.10000000E+01
  0.12383000E+01  0.65005713E+00  0.65005713E+00  0.65005713E+00  0.10000000E+01  0.10000000E+01  0.10000000E+01
  0.12921000E+01  0.65886966E+00  0.65886966E+00  0.65886966E+00  0.10000000E+01  0.10000000E+01  0.10000000E+01
  0.13460000E+01  0.65710300E+00  0.65710300E+00  0.65710300E+00  0.10000000E+01  0.10000000E+01  0.10000000E+01
  0.13998000E+01  0.64720715E+00  0.64720715E+00  0.64720715E+00  0.10000000E+01  0.10000000E+01  0.10000000E+01
  0.14537000E+01  0.63352723E+00  0.63352723E+00  0.63352723E+00  0.10000000E+01  0.10000000E+01  0.10000000E+01
  0.15075000E+01  0.62136582E+00  0.62136582E+00  0.62136582E+00  0.10000000E+01  0.10000000E+01  0.10000000E+01
  0.15613000E+01  0.61430674E+00  0.61430674E+00  0.61430674E+00  0.10000000E+01  0.10000000E+01  0.10000000E+01
  0.16152000E+01  0.60703857E+00  0.60703857E+00  0.60703857E+00  0.10000000E+01  0.10000000E+01  0.10000000E+01
  0.16690000E+01  0.59174200E+00  0.59174200E+00  0.59174200E+00  0.10000000E+01  0.10000000E+01  0.10000000E+01
  0.17228000E+01  0.56484320E+00  0.56484320E+00  0.56484320E+00  0.10000000E+01  0.10000000E+01  0.10000000E+01
  0.17767000E+01  0.52605522E+00  0.52605522E+00  0.52605522E+00  0.10000000E+01  0.10000000E+01  0.10000000E+01
  0.18305000E+01  0.47662286E+00  0.47662286E+00  0.47662286E+00  0.10000000E+01  0.10000000E+01  0.10000000E+01
  0.18844000E+01  0.42285045E+00  0.42285045E+00  0.42285045E+00  0.10000000E+01  0.10000000E+01  0.10000000E+01
  0.19382000E+01  0.37668017E+00  0.37668017E+00  0.37668017E+00  0.10000000E+01  0.10000000E+01  0.10000000E+01
  0.19920000E+01  0.35436173E+00  0.35436173E+00  0.35436173E+00  0.10000000E+01  0.10000000E+01  0.10000000E+01
  0.20459000E+01  0.35418579E+00  0.35418579E+00  0.35418579E+00  0.10000000E+01  0.10000000E+01  0.10000000E+01
  0.20997000E+01  0.35493463E+00  0.35493463E+00  0.35493463E+00  0.10000000E+01  0.10000000E+01  0.10000000E+01
  0.21536000E+01  0.34660483E+00  0.34660483E+00  0.34660483E+00  0.10000000E+01  0.10000000E+01  0.10000000E+01
  0.22074000E+01  0.34639192E+00  0.34639192E+00  0.34639192E+00  0.10000000E+01  0.10000000E+01  0.10000000E+01
  0.22612000E+01  0.35901459E+00  0.35901459E+00  0.35901459E+00  0.10000000E+01  0.10000000E+01  0.10000000E+01
  0.23151000E+01  0.36913378E+00  0.36913378E+00  0.36913378E+00  0.10000000E+01  0.10000000E+01  0.10000000E+01
  0.23689000E+01  0.36808097E+00  0.36808097E+00  0.36808097E+00  0.10000000E+01  0.10000000E+01  0.10000000E+01
  0.24228000E+01  0.35762292E+00  0.35762292E+00  0.35762292E+00  0.10000000E+01  0.10000000E+01  0.10000000E+01
  0.24766000E+01  0.34462654E+00  0.34462654E+00  0.34462654E+00  0.10000000E+01  0.10000000E+01  0.10000000E+01
  0.25304000E+01  0.33954918E+00  0.33954918E+00  0.33954918E+00  0.10000000E+01  0.10000000E+01  0.10000000E+01
  0.25843000E+01  0.34370825E+00  0.34370825E+00  0.34370825E+00  0.10000000E+01  0.10000000E+01  0.10000000E+01
  0.26381000E+01  0.34642365E+00  0.34642365E+00  0.34642365E+00  0.10000000E+01  0.10000000E+01  0.10000000E+01
  0.26919000E+01  0.34184867E+00  0.34184867E+00  0.34184867E+00  0.10000000E+01  0.10000000E+01  0.10000000E+01
  0.27458000E+01  0.33617200E+00  0.33617200E+00  0.33617200E+00  0.10000000E+01  0.10000000E+01  0.10000000E+01
  0.27996000E+01  0.33224986E+00  0.33224986E+00  0.33224986E+00  0.10000000E+01  0.10000000E+01  0.10000000E+01
  0.28535000E+01  0.32253209E+00  0.32253209E+00  0.32253209E+00  0.10000000E+01  0.10000000E+01  0.10000000E+01
  0.29073000E+01  0.30140363E+00  0.30140363E+00  0.30140363E+00  0.10000000E+01  0.10000000E+01  0.10000000E+01
  0.29611000E+01  0.27638968E+00  0.27638968E+00  0.27638968E+00  0.10000000E+01  0.10000000E+01  0.10000000E+01
  0.30150000E+01  0.26052497E+00  0.26052497E+00  0.26052497E+00  0.10000000E+01  0.10000000E+01  0.10000000E+01
  0.30688000E+01  0.25373293E+00  0.25373293E+00  0.25373293E+00  0.10000000E+01  0.10000000E+01  0.10000000E+01
  0.31227000E+01  0.24942986E+00  0.24942986E+00  0.24942986E+00  0.10000000E+01  0.10000000E+01  0.10000000E+01
  0.31765000E+01  0.23703045E+00  0.23703045E+00  0.23703045E+00  0.10000000E+01  0.10000000E+01  0.10000000E+01
  0.32303000E+01  0.21261768E+00  0.21261768E+00  0.21261768E+00  0.10000000E+01  0.10000000E+01  0.10000000E+01
  0.32842000E+01  0.19710738E+00  0.19710738E+00  0.19710738E+00  0.10000000E+01  0.10000000E+01  0.10000000E+01
  0.33380000E+01  0.19960802E+00  0.19960802E+00  0.19960802E+00  0.10000000E+01  0.10000000E+01  0.10000000E+01
  0.33919000E+01  0.20693250E+00  0.20693250E+00  0.20693250E+00  0.10000000E+01  0.10000000E+01  0.10000000E+01
  0.34457000E+01  0.20647083E+00  0.20647083E+00  0.20647083E+00  0.10000000E+01  0.10000000E+01  0.10000000E+01
  0.34995000E+01  0.19036821E+00  0.19036821E+00  0.19036821E+00  0.10000000E+01  0.10000000E+01  0.10000000E+01
  0.35534000E+01  0.17147499E+00  0.17147499E+00  0.17147499E+00  0.10000000E+01  0.10000000E+01  0.10000000E+01
  0.36072000E+01  0.16555529E+00  0.16555529E+00  0.16555529E+00  0.10000000E+01  0.10000000E+01  0.10000000E+01
  0.36611000E+01  0.17152244E+00  0.17152244E+00  0.17152244E+00  0.10000000E+01  0.10000000E+01  0.10000000E+01
  0.37149000E+01  0.17715783E+00  0.17715783E+00  0.17715783E+00  0.10000000E+01  0.10000000E+01  0.10000000E+01
  0.37687000E+01  0.17432085E+00  0.17432085E+00  0.17432085E+00  0.10000000E+01  0.10000000E+01  0.10000000E+01
  0.38226000E+01  0.16989453E+00  0.16989453E+00  0.16989453E+00  0.10000000E+01  0.10000000E+01  0.10000000E+01
  0.38764000E+01  0.17349393E+00  0.17349393E+00  0.17349393E+00  0.10000000E+01  0.10000000E+01  0.10000000E+01
  0.39302000E+01  0.18091595E+00  0.18091595E+00  0.18091595E+00  0.10000000E+01  0.10000000E+01  0.10000000E+01
  0.39841000E+01  0.18566720E+00  0.18566720E+00  0.18566720E+00  0.10000000E+01  0.10000000E+01  0.10000000E+01
  0.40379000E+01  0.19106191E+00  0.19106191E+00  0.19106191E+00  0.10000000E+01  0.10000000E+01  0.10000000E+01
  0.40918000E+01  0.19785833E+00  0.19785833E+00  0.19785833E+00  0.10000000E+01  0.10000000E+01  0.10000000E+01
  0.41456000E+01  0.20135665E+00  0.20135665E+00  0.20135665E+00  0.10000000E+01  0.10000000E+01  0.10000000E+01
  0.41994000E+01  0.20108116E+00  0.20108116E+00  0.20108116E+00  0.10000000E+01  0.10000000E+01  0.10000000E+01
  0.42533000E+01  0.20477356E+00  0.20477356E+00  0.20477356E+00  0.10000000E+01  0.10000000E+01  0.10000000E+01
  0.43071000E+01  0.21459614E+00  0.21459614E+00  0.21459614E+00  0.10000000E+01  0.10000000E+01  0.10000000E+01
  0.43610000E+01  0.22079365E+00  0.22079365E+00  0.22079365E+00  0.10000000E+01  0.10000000E+01  0.10000000E+01
  0.44148000E+01  0.21655124E+00  0.21655124E+00  0.21655124E+00  0.10000000E+01  0.10000000E+01  0.10000000E+01
  0.44686000E+01  0.20594191E+00  0.20594191E+00  0.20594191E+00  0.10000000E+01  0.10000000E+01  0.10000000E+01
  0.45225000E+01  0.19543166E+00  0.19543166E+00  0.19543166E+00  0.10000000E+01  0.10000000E+01  0.10000000E+01
  0.45763000E+01  0.19034434E+00  0.19034434E+00  0.19034434E+00  0.10000000E+01  0.10000000E+01  0.10000000E+01
  0.46302000E+01  0.19339984E+00  0.19339984E+00  0.19339984E+00  0.10000000E+01  0.10000000E+01  0.10000000E+01
  0.46840000E+01  0.20140601E+00  0.20140601E+00  0.20140601E+00  0.10000000E+01  0.10000000E+01  0.10000000E+01
  0.47378000E+01  0.21343798E+00  0.21343798E+00  0.21343798E+00  0.10000000E+01  0.10000000E+01  0.10000000E+01
  0.47917000E+01  0.22671439E+00  0.22671439E+00  0.22671439E+00  0.10000000E+01  0.10000000E+01  0.10000000E+01
  0.48455000E+01  0.23973295E+00  0.23973295E+00  0.23973295E+00  0.10000000E+01  0.10000000E+01  0.10000000E+01
  0.48993000E+01  0.25471945E+00  0.25471945E+00  0.25471945E+00  0.10000000E+01  0.10000000E+01  0.10000000E+01
  0.49532000E+01  0.27014271E+00  0.27014271E+00  0.27014271E+00  0.10000000E+01  0.10000000E+01  0.10000000E+01
  0.50070000E+01  0.28670530E+00  0.28670530E+00  0.28670530E+00  0.10000000E+01  0.10000000E+01  0.10000000E+01
  0.50609000E+01  0.30546657E+00  0.30546657E+00  0.30546657E+00  0.10000000E+01  0.10000000E+01  0.10000000E+01
  0.51147000E+01  0.32366112E+00  0.32366112E+00  0.32366112E+00  0.10000000E+01  0.10000000E+01  0.10000000E+01
  0.51685000E+01  0.33009928E+00  0.33009928E+00  0.33009928E+00  0.10000000E+01  0.10000000E+01  0.10000000E+01
  0.52224000E+01  0.31432446E+00  0.31432446E+00  0.31432446E+00  0.10000000E+01  0.10000000E+01  0.10000000E+01
  0.52762000E+01  0.28073659E+00  0.28073659E+00  0.28073659E+00  0.10000000E+01  0.10000000E+01  0.10000000E+01
  0.53301000E+01  0.25079228E+00  0.25079228E+00  0.25079228E+00  0.10000000E+01  0.10000000E+01  0.10000000E+01
  0.53839000E+01  0.23681071E+00  0.23681071E+00  0.23681071E+00  0.10000000E+01  0.10000000E+01  0.10000000E+01
  0.54377000E+01  0.23294919E+00  0.23294919E+00  0.23294919E+00  0.10000000E+01  0.10000000E+01  0.10000000E+01
  0.54916000E+01  0.23636741E+00  0.23636741E+00  0.23636741E+00  0.10000000E+01  0.10000000E+01  0.10000000E+01
  0.55454000E+01  0.24065126E+00  0.24065126E+00  0.24065126E+00  0.10000000E+01  0.10000000E+01  0.10000000E+01
  0.55993000E+01  0.23189974E+00  0.23189974E+00  0.23189974E+00  0.10000000E+01  0.10000000E+01  0.10000000E+01
  0.56531000E+01  0.20821549E+00  0.20821549E+00  0.20821549E+00  0.10000000E+01  0.10000000E+01  0.10000000E+01
  0.57069000E+01  0.18198563E+00  0.18198563E+00  0.18198563E+00  0.10000000E+01  0.10000000E+01  0.10000000E+01
  0.57608000E+01  0.16267600E+00  0.16267600E+00  0.16267600E+00  0.10000000E+01  0.10000000E+01  0.10000000E+01
  0.58146000E+01  0.15565426E+00  0.15565426E+00  0.15565426E+00  0.10000000E+01  0.10000000E+01  0.10000000E+01
  0.58684000E+01  0.16021772E+00  0.16021772E+00  0.16021772E+00  0.10000000E+01  0.10000000E+01  0.10000000E+01
  0.59223000E+01  0.17397174E+00  0.17397174E+00  0.17397174E+00  0.10000000E+01  0.10000000E+01  0.10000000E+01
  0.59761000E+01  0.19207455E+00  0.19207455E+00  0.19207455E+00  0.10000000E+01  0.10000000E+01  0.10000000E+01
  0.60300000E+01  0.20772770E+00  0.20772770E+00  0.20772770E+00  0.10000000E+01  0.10000000E+01  0.10000000E+01
  0.60838000E+01  0.21755725E+00  0.21755725E+00  0.21755725E+00  0.10000000E+01  0.10000000E+01  0.10000000E+01
  0.61376000E+01  0.21978133E+00  0.21978133E+00  0.21978133E+00  0.10000000E+01  0.10000000E+01  0.10000000E+01
  0.61915000E+01  0.21724135E+00  0.21724135E+00  0.21724135E+00  0.10000000E+01  0.10000000E+01  0.10000000E+01
  0.62453000E+01  0.21918613E+00  0.21918613E+00  0.21918613E+00  0.10000000E+01  0.10000000E+01  0.10000000E+01
  0.62992000E+01  0.23194400E+00  0.23194400E+00  0.23194400E+00  0.10000000E+01  0.10000000E+01  0.10000000E+01
  0.63530000E+01  0.24784456E+00  0.24784456E+00  0.24784456E+00  0.10000000E+01  0.10000000E+01  0.10000000E+01
  0.64068000E+01  0.25138836E+00  0.25138836E+00  0.25138836E+00  0.10000000E+01  0.10000000E+01  0.10000000E+01
  0.64607000E+01  0.23913492E+00  0.23913492E+00  0.23913492E+00  0.10000000E+01  0.10000000E+01  0.10000000E+01
  0.65145000E+01  0.22683863E+00  0.22683863E+00  0.22683863E+00  0.10000000E+01  0.10000000E+01  0.10000000E+01
  0.65684000E+01  0.22149515E+00  0.22149515E+00  0.22149515E+00  0.10000000E+01  0.10000000E+01  0.10000000E+01
  0.66222000E+01  0.21496173E+00  0.21496173E+00  0.21496173E+00  0.10000000E+01  0.10000000E+01  0.10000000E+01
  0.66760000E+01  0.20508793E+00  0.20508793E+00  0.20508793E+00  0.10000000E+01  0.10000000E+01  0.10000000E+01
  0.67299000E+01  0.19922770E+00  0.19922770E+00  0.19922770E+00  0.10000000E+01  0.10000000E+01  0.10000000E+01
  0.67837000E+01  0.20238531E+00  0.20238531E+00  0.20238531E+00  0.10000000E+01  0.10000000E+01  0.10000000E+01
  0.68375000E+01  0.21149399E+00  0.21149399E+00  0.21149399E+00  0.10000000E+01  0.10000000E+01  0.10000000E+01
  0.68914000E+01  0.22068575E+00  0.22068575E+00  0.22068575E+00  0.10000000E+01  0.10000000E+01  0.10000000E+01
  0.69452000E+01  0.22596728E+00  0.22596728E+00  0.22596728E+00  0.10000000E+01  0.10000000E+01  0.10000000E+01
  0.69991000E+01  0.22651419E+00  0.22651419E+00  0.22651419E+00  0.10000000E+01  0.10000000E+01  0.10000000E+01
  0.70529000E+01  0.22032368E+00  0.22032368E+00  0.22032368E+00  0.10000000E+01  0.10000000E+01  0.10000000E+01
  0.71067000E+01  0.20871852E+00  0.20871852E+00  0.20871852E+00  0.10000000E+01  0.10000000E+01  0.10000000E+01
  0.71606000E+01  0.19877235E+00  0.19877235E+00  0.19877235E+00  0.10000000E+01  0.10000000E+01  0.10000000E+01
  0.72144000E+01  0.20110722E+00  0.20110722E+00  0.20110722E+00  0.10000000E+01  0.10000000E+01  0.10000000E+01
  0.72683000E+01  0.22122768E+00  0.22122768E+00  0.22122768E+00  0.10000000E+01  0.10000000E+01  0.10000000E+01
  0.73221000E+01  0.24927661E+00  0.24927661E+00  0.24927661E+00  0.10000000E+01  0.10000000E+01  0.10000000E+01
  0.73759000E+01  0.27346054E+00  0.27346054E+00  0.27346054E+00  0.10000000E+01  0.10000000E+01  0.10000000E+01
  0.74298000E+01  0.29323064E+00  0.29323064E+00  0.29323064E+00  0.10000000E+01  0.10000000E+01  0.10000000E+01
  0.74836000E+01  0.31192567E+00  0.31192567E+00  0.31192567E+00  0.10000000E+01  0.10000000E+01  0.10000000E+01
  0.75375000E+01  0.32713284E+00  0.32713284E+00  0.32713284E+00  0.10000000E+01  0.10000000E+01  0.10000000E+01
  0.75913000E+01  0.33415315E+00  0.33415315E+00  0.33415315E+00  0.10000000E+01  0.10000000E+01  0.10000000E+01
  0.76451000E+01  0.33371871E+00  0.33371871E+00  0.33371871E+00  0.10000000E+01  0.10000000E+01  0.10000000E+01
  0.76990000E+01  0.33098437E+00  0.33098437E+00  0.33098437E+00  0.10000000E+01  0.10000000E+01  0.10000000E+01
  0.77528000E+01  0.32541489E+00  0.32541489E+00  0.32541489E+00  0.10000000E+01  0.10000000E+01  0.10000000E+01
  0.78067000E+01  0.31108894E+00  0.31108894E+00  0.31108894E+00  0.10000000E+01  0.10000000E+01  0.10000000E+01
  0.78605000E+01  0.28772642E+00  0.28772642E+00  0.28772642E+00  0.10000000E+01  0.10000000E+01  0.10000000E+01
  0.79143000E+01  0.26579002E+00  0.26579002E+00  0.26579002E+00  0.10000000E+01  0.10000000E+01  0.10000000E+01
  0.79682000E+01  0.25850817E+00  0.25850817E+00  0.25850817E+00  0.10000000E+01  0.10000000E+01  0.10000000E+01
  0.80220000E+01  0.26947009E+00  0.26947009E+00  0.26947009E+00  0.10000000E+01  0.10000000E+01  0.10000000E+01
  0.80758000E+01  0.28747825E+00  0.28747825E+00  0.28747825E+00  0.10000000E+01  0.10000000E+01  0.10000000E+01
  0.81297000E+01  0.30110434E+00  0.30110434E+00  0.30110434E+00  0.10000000E+01  0.10000000E+01  0.10000000E+01
  0.81835000E+01  0.30634044E+00  0.30634044E+00  0.30634044E+00  0.10000000E+01  0.10000000E+01  0.10000000E+01
  0.82374000E+01  0.29870447E+00  0.29870447E+00  0.29870447E+00  0.10000000E+01  0.10000000E+01  0.10000000E+01
  0.82912000E+01  0.27593214E+00  0.27593214E+00  0.27593214E+00  0.10000000E+01  0.10000000E+01  0.10000000E+01
  0.83450000E+01  0.24933099E+00  0.24933099E+00  0.24933099E+00  0.10000000E+01  0.10000000E+01  0.10000000E+01
  0.83989000E+01  0.22689804E+00  0.22689804E+00  0.22689804E+00  0.10000000E+01  0.10000000E+01  0.10000000E+01
  0.84527000E+01  0.20859577E+00  0.20859577E+00  0.20859577E+00  0.10000000E+01  0.10000000E+01  0.10000000E+01
  0.85066000E+01  0.19781333E+00  0.19781333E+00  0.19781333E+00  0.10000000E+01  0.10000000E+01  0.10000000E+01
  0.85604000E+01  0.19116514E+00  0.19116514E+00  0.19116514E+00  0.10000000E+01  0.10000000E+01  0.10000000E+01
  0.86142000E+01  0.17685693E+00  0.17685693E+00  0.17685693E+00  0.10000000E+01  0.10000000E+01  0.10000000E+01
  0.86681000E+01  0.15400268E+00  0.15400268E+00  0.15400268E+00  0.10000000E+01  0.10000000E+01  0.10000000E+01
  0.87219000E+01  0.13762621E+00  0.13762621E+00  0.13762621E+00  0.10000000E+01  0.10000000E+01  0.10000000E+01
  0.87758000E+01  0.13351793E+00  0.13351793E+00  0.13351793E+00  0.10000000E+01  0.10000000E+01  0.10000000E+01
  0.88296000E+01  0.13084966E+00  0.13084966E+00  0.13084966E+00  0.10000000E+01  0.10000000E+01  0.10000000E+01
  0.88834000E+01  0.12259890E+00  0.12259890E+00  0.12259890E+00  0.10000000E+01  0.10000000E+01  0.10000000E+01
  0.89373000E+01  0.11181361E+00  0.11181361E+00  0.11181361E+00  0.10000000E+01  0.10000000E+01  0.10000000E+01
  0.89911000E+01  0.10219471E+00  0.10219471E+00  0.10219471E+00  0.10000000E+01  0.10000000E+01  0.10000000E+01
  0.90449000E+01  0.94383320E-01  0.94383320E-01  0.94383320E-01  0.10000000E+01  0.10000000E+01  0.10000000E+01
  0.90988000E+01  0.90027215E-01  0.90027215E-01  0.90027215E-01  0.10000000E+01  0.10000000E+01  0.10000000E+01
  0.91526000E+01  0.92760133E-01  0.92760133E-01  0.92760133E-01  0.10000000E+01  0.10000000E+01  0.10000000E+01
  0.92065000E+01  0.10361790E+00  0.10361790E+00  0.10361790E+00  0.10000000E+01  0.10000000E+01  0.10000000E+01
  0.92603000E+01  0.12072876E+00  0.12072876E+00  0.12072876E+00  0.10000000E+01  0.10000000E+01  0.10000000E+01
  0.93141000E+01  0.13657547E+00  0.13657547E+00  0.13657547E+00  0.10000000E+01  0.10000000E+01  0.10000000E+01
  0.93680000E+01  0.14294133E+00  0.14294133E+00  0.14294133E+00  0.10000000E+01  0.10000000E+01  0.10000000E+01
  0.94218000E+01  0.14135900E+00  0.14135900E+00  0.14135900E+00  0.10000000E+01  0.10000000E+01  0.10000000E+01
